favrot -0.388438 0.35188600000000003 -0.354798 -0.548952 -0.171087 -0.0031240000000000018 -0.217335 -0.527957 -0.007776999999999992 -0.6066130000000001 -0.378402 0.550199 0.716126 0.136737 -0.324118 -0.8197429999999999 -0.37026000000000003 0.087106 0.615039 -0.340711 -0.313199 -0.41309700000000005 0.261227 -0.95458 0.048428 -0.714382 -0.14650200000000002 -0.035335 -0.960566 -0.510689 0.33511599999999997 -0.448301 0.301031 0.371086 -0.152663 -0.6895990000000001 0.301084 -0.13059 -0.18814799999999998 0.26906800000000003 0.076266 -0.071078 0.17522700000000002 -0.25249299999999997 -1.171334 -0.250866 -1.107876 0.345737 -0.347384 -0.717932 -0.39609 -1.468366 -0.351694 0.011639 -0.565558 0.749384 -0.252144 -0.806251 0.8633790000000001 0.505157 0.06009700000000001 -0.659658 0.131473 0.212302 -0.0047539999999999805 0.157202 0.386421 -0.159047 0.483376 0.8567 0.13824 -0.033518000000000006 0.568878 -0.009564000000000003 -1.0711490000000001 -0.131407 0.526141 0.303201 0.08954399999999998 0.002605999999999997 0.704728 0.393604 -1.206152 0.37676699999999996 0.465135 0.6578330000000001 -0.279959 -0.491647 0.722869 0.05043000000000003 -0.268041 -0.12372199999999998 -0.10737100000000001 -0.131989 0.11308599999999999 0.21407299999999999 -0.596203 0.035816 0.399156 0.02623800000000004 -0.145122 -0.14555900000000002 0.599197 -0.733149 -0.20194 0.056804999999999994 0.683611 0.241614 -0.07459199999999999 -0.04178899999999999 0.823213 -0.437118 -0.455627 0.327252 -0.377022 -0.31669 -0.026119000000000003 1.08013 0.244259 -0.032482000000000004 -0.51117 -0.8848779999999999 -0.5628610000000001 0.191358 0.209956 0.255733 -0.021419000000000007 0.268275 0.13864500000000002 0.097885 -0.0494 -0.23471599999999998 0.41226799999999997 0.42244000000000004 0.07645199999999999 -0.502622 -0.392075 -0.06394800000000003 -0.371241 -0.11368099999999998 0.106707 -0.6889569999999999 -0.276871 -0.24332099999999998 0.032969 0.272508 -0.5667580000000001 0.372584 0.632492 0.451875 0.353126 -0.042537999999999965 -0.006064999999999987 -0.528418 -1.013637 -0.30118900000000004 -0.112849 0.647011 -0.12029499999999999 0.973454 0.24502900000000002 -0.38102699999999995 -0.672763 -0.163765 0.444605 0.228579 -0.330494 0.271878 0.675767 0.442134 0.191403 -0.26319000000000004 -0.305768 0.163487 0.477022 -0.301989 0.544691 0.278216 -0.617626 0.22895999999999997 0.39089599999999997 0.133969 -0.305353 0.167728 0.006901000000000018 -0.084922 0.33858699999999997 0.494099 0.400285 0.218948 0.188066 0.415835 -1.0026389999999998 0.360467 0.637318 -0.739517 0.215648 0.05318199999999999 0.579115 -0.164524 -0.042814000000000005 -0.7783039999999999 0.419115 -1.168939 0.466377 0.014241000000000004 0.005987999999999993 0.91177 0.145167 -0.287718 0.825178 0.9350269999999999 -0.44060999999999995 -0.23965399999999998 -0.24204099999999998 0.322348 -0.22307000000000002 -0.10774 0.11017199999999999 -0.05659799999999998 0.074852 0.486228 0.8983909999999999 -0.052035 0.255205 -0.9683849999999999 0.298747 -0.946243 0.27626599999999996 -0.29015 -1.022856 0.495535 0.536844 -0.591927 0.321415 -0.43652399999999997 -0.25014800000000004 0.078485 0.164885 -0.326819 -0.09992400000000001 -0.046359999999999985 1.0739100000000001 0.39908200000000005 -0.427846 -0.13516 0.83742 0.489625 -0.129626 -0.680043 -0.441021 0.177867 0.049098999999999976 -0.6429020000000001 0.184479 0.563646 0.5129929999999999 0.390564 0.30297799999999997 -0.006740000000000024 0.03642 -0.099712 -0.360854 -0.304511 -0.32222 -0.617167 -0.810685 -0.23585499999999998 -0.47227600000000003 0.283937 0.6929540000000001 -0.206733 -0.591798 0.23631000000000002 -0.539193 -0.109389 0.423797 -0.26910100000000003 0.139365 0.0999 -0.158249 -0.14824199999999998 -0.13744499999999998 0.587127 -0.055721999999999994 -0.493486 -0.675322 -0.33104500000000003 -0.266376 -0.37371 -0.321531 0.69506 -0.32455200000000006 -0.118285 0.9402220000000001 0.006540000000000004 -1.622354 0.263027 -0.694333 -0.315283